2
5.09
5.09
5.085
5.085
5.1
5.11
5.09
5.08
5.09
5.095
5.09
5.08
5.085
5.095
5.075
5.065
5.065
5.08
5.06
5.05
5.045
5.05
5.05
5.025
5.025
5.03
5.025
5.0
4.995
5.01
5.005
5.0
4.985
5.0
4.995
4.975
4.975
4.985
4.975
4.96
4.96
4.975
4.97
4.96
4.955
4.955
4.97
4.96
4.945
4.95
4.955
4.95
4.935
4.94
4.94
4.94
4.935
4.94
4.94
4.94
4.93
4.915
4.93
4.935
4.93
4.925
4.94
4.94
4.93
4.925
4.94
4.945
4.965
5.01
5.305
5.44
5.915
5.545
5.38
5.34
5.275
5.195
5.095
4.925
4.675
4.315
3.955
3.595
3.265
2.985
2.765
2.62
2.51
2.375
2.245
2.155
2.125
2.09
2.065
2.05
2.045
2.045
2.045
2.05
2.085
2.145
2.235
2.395
2.58
2.795
3.055
3.365
3.705
4.01
4.305
4.595
4.875
5.09
5.285
5.455
5.615
5.71
5.76
5.805
5.85
5.875
5.95
5.975
6.005
6.055
6.08
6.1
6.125
6.175
6.21
6.24
6.275
6.32
6.365
6.4
6.435
6.495
6.535
6.55
6.585
6.63
6.69
6.725
6.76
6.81
6.83
6.88
6.885
6.915
6.94
6.935
6.92
6.91
6.895
6.86
6.8
6.745
6.7
6.63
6.54
6.455
6.38
6.305
6.22
6.115
6.05
5.975
5.895
5.8
5.755
5.735
5.655
5.59
5.54
5.515
5.47
5.43
5.395
5.39
5.335
5.295
5.26
5.255
5.235
5.2
5.175
5.16
5.16
5.13
5.115
5.115
5.12
5.13
5.125
5.135
5.135
5.13
5.125
5.135
5.135
5.15
5.135
5.135
5.145
5.145
5.13
5.13
5.145
5.15
5.15
5.13
5.14
5.145
5.12
5.12
5.12
5.12
5.12
5.09
5.1
5.105
5.105
5.085
5.08
5.09
5.09
5.065
5.065
5.07
5.065
5.05
5.035
5.045
5.045
5.03
5.025
5.025
5.04
5.03
5.005
5.02
5.02
5.015
4.995
5.02
5.025
5.015
4.99
5.0
5.015
5.015
4.995
4.99
5.005
5.005
4.99
4.975
5.0
5.0
4.985
4.985
4.985
4.995
4.99
4.98
4.985
4.995
4.985
4.96
4.975
4.97
4.98
4.965
4.97
4.985
4.985
4.97
4.965
4.985
4.995
5.0
5.045
5.3
5.795
5.955
5.61
5.435
5.395
5.33
5.28
5.24
5.135
4.965
4.72
4.43
4.335
3.8
3.47
3.175
2.97
2.79
2.635
2.535
2.445
2.32
2.225
2.16
2.15
2.12
2.095
2.08
2.08
2.085
2.09
2.095
2.13
2.195
2.26
2.375
2.555
2.61
2.975
3.255
3.575
3.88
4.175
4.465
4.745
4.99
5.2
5.37
5.54
5.7
5.795
5.85
5.91
5.965
6.01
6.04
6.065
6.11
6.155
6.17
6.2
6.24
6.26
6.32
6.34
6.38
6.42
6.46
6.48
6.52
6.585
6.625
6.66
6.695
6.745
6.8
6.815
6.86
6.91
6.95
6.97
7.0
7.05
7.05
7.07
7.06
7.07
7.075
7.055
7.03
7.0
6.985
6.945
6.885
6.835
6.78
6.72
6.63
6.55
6.48
6.4
6.3
6.215
6.145
6.07
5.98
5.895
5.83
5.765
5.695
5.635
5.6
5.59
5.505
5.455
5.415
5.405
5.37
5.325
5.305
5.295
5.28
5.25
5.235
5.225
5.225
5.205
5.195
5.21
5.2
5.195
5.175
5.185
5.195
5.18
5.17
5.175
5.17
5.175
5.165
5.17
5.17
5.18
5.165
5.16
5.175
5.175
5.165
5.165
5.175
5.18
5.185
5.175
5.19
5.2
5.2
5.19
5.195
5.19
5.185
5.165
5.17
5.175
5.14
5.12
5.105
5.095
5.075
5.06
5.035
5.04
5.035
5.01
5.01
5.025
5.04
5.015
5.01
5.01
5.02
5.02
5.0
5.0
5.01
5.005
4.99
5.0
5.01
5.0
4.985
4.975
4.995
4.99
4.97
4.975
4.975
4.98
4.97
4.96
4.975
4.965
4.965
4.955
4.97
4.965
4.955
4.94
4.965
4.97
4.965
4.945
4.955
4.965
4.965
4.96
4.96
4.985
5.005
5.065
5.395
5.885
5.825
5.5
5.38
5.345
5.295
5.235
5.155
5.02
4.81
4.505
4.155
3.815
3.445
3.08
2.82
2.655
2.615
2.45
2.335
2.23
2.17
2.135
2.09
2.07
2.07
2.065
2.04
2.04
2.075
2.105
2.16
2.24
2.39
2.565
2.75
2.98
3.28
3.6
3.905
4.175
4.45
4.545
4.94
5.135
5.325
5.515
5.665
5.755
5.825
5.9
5.945
5.985
6.035
6.08
6.125
6.155
6.195
6.25
6.3
6.33
6.37
6.425
6.48
6.515
6.56
6.615
6.635
6.715
6.755
6.805
6.85
6.89
6.92
6.96
7.0
7.035
7.05
7.06
7.08
7.09
7.08
7.055
7.045
7.015
6.965
6.915
6.865
6.81
6.735
6.63
6.575
6.555
6.42
6.33
6.255
6.19
6.1
6.0
5.925
5.87
5.8
5.715
5.66
5.615
5.56
5.5
5.465
5.43
5.4
5.355
5.31
5.29
5.285
5.245
5.215
5.205
5.21
5.18
5.15
5.15
5.145
5.145
5.125
5.12
5.13
5.125
5.105
5.09
5.115
5.1
5.08
5.095
5.09
5.1
5.105
5.09
5.1
5.1
5.095
5.085
5.095
5.1
5.105
5.09
5.085
5.1
5.09
5.08
5.085
5.085
5.08
5.065
5.06
5.07
5.07
5.06
5.04
5.045
5.04
5.045
5.02
5.025
5.035
5.025
5.01
5.0
5.01
5.01
4.995
4.985
4.995
4.995
4.985
4.975
4.98
4.995
4.975
4.98
4.99
5.005
4.995
5.0
5.02
5.015
5.02
5.0
5.01
5.005
4.98
4.955
4.955
4.96
4.935
4.92
4.9
4.905
4.9
4.875
4.885
4.905
4.915
4.91
4.905
4.915
4.925
4.925
4.96
5.07
5.5
5.955
5.75
5.445
5.365
5.315
5.255
5.205
5.185
4.94
4.665
4.375
4.085
3.785
3.485
3.275
3.125
2.995
2.835
2.67
2.515
2.375
2.29
2.23
2.18
2.14
2.1
2.075
2.07
2.075
2.105
2.165
2.31
2.355
2.665
2.86
3.16
3.495
3.815
4.115
4.41
4.715
4.965
5.135
5.335
5.51
5.635
5.705
5.765
5.83
5.885
5.93
5.96
6.02
6.065
6.09
6.13
6.175
6.195
6.27
6.3
6.36
6.41
6.46
6.49
6.55
6.61
6.65
6.68
6.725
6.785
6.825
6.86
6.885
6.935
6.96
6.965
6.975
6.98
6.985
6.95
6.92
6.89
6.88
6.785
6.705
6.655
6.595
6.51
6.425
6.345
6.275
6.19
6.09
6.005
5.935
5.86
5.77
5.705
5.645
5.59
5.535
5.475
5.45
5.41
5.36
5.32
5.3
5.295
5.25
5.21
5.2
5.205
5.18
5.155
5.145
5.15
5.15
5.135
5.125
5.125
5.125
5.105
5.1
5.12
5.115
5.11
5.09
5.105
5.12
5.12
5.1
5.115
5.12
5.12
5.115
5.115
5.125
5.125
5.11
5.115
5.12
5.125
5.105
5.105
5.105
5.11
5.105
5.085
5.09
5.09
5.08
5.065
5.07
5.085
5.06
5.035
5.045
5.04
5.035
5.015
5.01
5.015
5.02
5.0
5.005
5.005
5.005
5.0
4.99
4.99
4.995
4.975
4.97
4.985
4.975
4.97
4.965
4.975
4.98
4.97
4.945
4.95
4.96
4.955
4.955
4.955
4.95
4.955
4.94
4.945
4.96
4.96
4.94
4.93
4.95
4.955
4.94
4.94
4.975
4.99
5.02
5.225
5.705
6.01
5.745
5.46
5.41
5.4
5.305
5.24
5.135
4.96
4.68
4.325
3.97
3.625
3.28
2.98
2.745
2.575
2.455
2.31
2.185
2.13
2.085
2.05
2.03
2.025
2.025
2.03
2.02
2.04
2.055
2.14
2.245
2.43
2.64
2.885
3.155
3.47
3.795
4.105
4.4
4.68
4.935
5.14
5.335
5.505
5.65
5.72
5.78
5.82
5.88
5.925
5.965
5.995
6.04
6.06
6.13
6.14
6.2
6.25
6.285
6.315
6.365
6.415
6.465
6.49
6.535
6.6
6.65
6.67
6.715
6.775
6.82
6.845
6.87
6.91
6.945
6.96
6.955
6.965
6.97
6.955
6.92
6.9
6.865
6.81
6.735
6.67
6.61
6.535
6.43
6.335
6.25
6.17
6.075
5.98
5.91
5.83
5.75
5.67
5.605
5.55
5.485
5.42
5.395
5.385
5.325
5.275
5.265
5.25
5.23
5.205
5.19
5.195
5.2
5.18
5.165
5.175
5.175
5.17
5.16
5.17
5.17
5.16
5.15
5.16
5.17
5.155
5.16
5.155
5.16
5.165
5.14
5.145
5.16
5.155
5.14
5.15
5.145
5.14
5.115
5.12
5.125
5.13
5.11
5.09
5.1
5.09
5.08
5.06
5.065
5.075
5.06
5.035
5.045
5.05
5.045
5.03
5.025
5.03
5.03
5.015
5.015
5.01
5.02
4.99
4.995
5.0
5.015
4.99
4.975
4.995
4.99
4.98
4.965
4.985
4.985
4.975
4.96
4.975
4.975
4.97
4.955
4.955
4.965
4.97
4.95
4.96
4.97
4.965
4.955
4.955
4.965
4.965
4.95
4.945
4.965
4.975
4.99
5.13
5.575
5.89
5.625
5.38
5.34
5.325
5.235
5.145
5.02
4.805
4.47
4.105
3.735
3.365
3.03
2.78
2.58
2.475
2.375
2.235
2.155
2.125
2.1
2.075
2.045
2.06
2.055
2.065
2.07
2.105
2.12
2.275
2.43
2.65
2.91
3.225
3.54
3.88
4.2
4.525
4.79
5.035
5.255
5.465
5.62
5.71
5.79
5.85
5.88
5.925
5.975
6.02
6.04
6.065
6.105
6.12
6.16
6.175
6.22
6.25
6.29
6.305
6.345
6.395
6.44
6.46
6.515
6.56
6.6
6.635
6.67
6.715
6.75
6.77
6.805
6.845
6.86
6.89
6.895
6.9
6.905
6.89
6.86
6.825
6.785
6.73
6.645
6.57
6.505
6.41
6.31
6.225
6.135
6.045
5.935
5.85
5.775
5.72
5.65
5.57
5.53
5.48
5.425
5.38
5.35
5.345
5.305
5.275
5.25
5.26
5.245
5.215
5.22
5.225
5.22
5.2
5.19
5.205
5.205
5.185
5.19
5.195
5.185
5.155
5.13
5.1
5.075
5.03
4.995
5.005
5.015
5.06
5.14
5.31
5.525
5.72
5.88
6.095
6.365
6.63
6.865
7.105
7.345
7.53
7.63
7.645
7.605
7.38
6.875
6.06
5.345
5.035
4.955
4.84
4.69
4.655
4.54
4.49
4.46
4.435
4.385
4.335
4.31
4.285
4.265
4.21
4.19
4.18
4.155
4.125
4.095
4.085
4.07
4.035
4.01
4.0
3.975
3.945
3.9
3.905
3.895
3.855
3.81
3.81
3.795
3.77
3.74
3.72
3.715
3.705
3.675
3.665
3.68
3.675
3.665
3.675
3.695
3.715
3.725
3.75
3.8
3.85
3.895
3.95
4.03
4.06
4.185
4.255
4.36
4.455
4.54
4.605
4.685
4.765
4.83
4.865
4.91
4.955
4.975
4.98
5.005
5.04
5.04
5.05
5.035
5.06
5.07
5.06
5.05
5.065
5.07
5.07
5.06
5.065
5.075
5.075
5.065
5.07
5.075
5.08
5.065
5.065
5.08
5.095
5.095
5.1
5.11
5.115
5.105
5.105
5.11
5.12
5.1
5.06
5.07
5.065
5.05
5.02
5.02
5.02
5.015
4.995
4.98
5.0
5.005
5.005
5.02
5.03
5.035
5.01
5.015
5.035
5.04
5.025
5.015
5.02
5.04
5.025
5.025
5.035
5.04
5.035
5.03
5.025
5.045
5.045
5.03
5.03
5.05
5.045
5.04
5.04
5.045
5.055
5.05
5.05
5.045
5.055
5.055
5.045
5.055
5.07
5.06
5.045
5.06
5.06
5.075
5.065
5.07
5.085
5.08
5.065
5.075
5.085
5.09
5.075
5.085
5.085
5.09
5.085
5.075
5.085
5.095
5.09
5.075
5.085
5.1
5.095
5.08
5.095
5.1
5.1
5.085
5.1
5.095
5.095
5.075
5.09
5.1
5.1
5.08
5.085
5.1
5.1
5.085
5.095
5.105
5.14
5.205
5.52
6.075
6.105
5.73
5.545
5.505
5.49
5.385
5.275
5.115
4.87
4.54
4.18
3.845
3.525
3.23
3.02
2.88
2.795
2.69
2.55
2.43
2.38
2.35
2.29
2.255
2.255
2.245
2.255
2.25
2.32
2.345
2.545
2.705
2.9
3.125
3.395
3.69
4.015
4.315
4.625
4.885
5.125
5.325
5.505
5.665
5.81
5.92
6.0
6.05
6.1
6.17
6.225
6.27
6.32
6.38
6.4
6.49
6.53
6.595
6.665
6.715
6.76
6.825
6.89
6.945
6.995
7.04
7.105
7.155
7.195
7.235
7.295
7.32
7.345
7.37
7.395
7.415
7.415
7.395
7.4
7.405
7.365
7.315
7.28
7.245
7.19
7.115
7.05
6.995
6.92
6.825
6.73
6.665
6.575
6.48
6.405
6.33
6.245
6.165
6.075
6.02
5.94
5.875
5.81
5.75
5.735
5.65
5.58
5.545
5.515
5.475
5.435
5.405
5.39
5.36
5.32
5.305
5.305
5.295
5.265
5.25
5.255
5.25
5.235
5.225
5.235
5.24
5.23
5.22
5.245
5.25
5.255
5.25
5.265
5.28
5.275
5.27
5.275
5.29
5.29
5.275
5.27
5.27
5.26
5.235
5.225
5.215
5.2
5.185
5.155
5.165
5.155
5.145
5.14
5.16
5.17
5.15
5.14
5.13
5.13
5.115
5.105
5.105
5.105
5.11
5.09
5.08
5.095
5.08
5.07
5.06
5.06
5.055
5.045
5.035
5.04
5.04
5.035
5.02
5.025
5.03
5.025
5.01
5.015
5.02
5.015
5.01
5.015
5.025
5.02
5.01
5.0
5.02
5.01
5.005
5.0
5.015
5.015
5.015
5.005
5.015
5.035
5.035
5.04
5.19
5.275
5.91
5.625
5.415
5.37
5.32
5.25
5.165
5.035
4.805
4.46
4.08
3.725
3.33
2.965
2.725
2.58
2.475
2.375
2.26
2.185
2.14
2.11
2.08
2.07
2.085
2.075
2.065
2.075
2.12
2.19
2.28
2.445
2.65
2.875
3.155
3.51
3.85
4.145
4.43
4.72
4.985
5.185
5.35
5.52
5.69
5.78
5.835
5.88
5.945
5.965
6.03
6.065
6.105
6.16
6.195
6.23
6.265
6.32
6.375
6.405
6.445
6.5
6.545
6.585
6.63
6.705
6.735
6.765
6.81
6.865
6.91
6.935
6.955
6.985
6.99
7.015
7.02
7.03
7.02
7.005
6.96
6.925
6.88
6.825
6.74
6.67
6.6
6.525
6.425
6.34
6.27
6.165
6.08
6.0
5.925
5.87
5.78
5.7
5.65
5.635
5.53
5.47
5.435
5.4
5.355
5.32
5.29
5.27
5.245
5.205
5.19
5.19
5.18
5.155
5.135
5.135
5.135
5.11
5.1
5.105
5.115
5.1
5.085
5.1
5.105
5.1
5.075
5.08
5.095
5.095
5.08
5.085
5.09
5.095
5.1
5.1
5.1
5.1
5.08
5.075
5.09
5.085
5.08
5.07
5.075
5.085
5.07
5.065
5.055
5.055
5.065
5.045
5.03
5.03
5.025
5.02
5.01
5.01
5.01
4.99
4.98
5.0
5.0
4.985
4.98
4.98
4.99
4.975
4.98
4.99
5.01
5.005
4.99
5.01
5.015
5.025
5.0
4.995
5.01
5.005
4.985
4.97
4.975
4.965
4.945
4.94
4.955
4.94
4.925
4.895
4.9
4.895
4.885
4.895
4.92
4.925
4.92
4.91
4.92
4.925
4.925
4.915
4.915
4.925
4.935
4.925
4.935
4.97
5.035
5.26
5.73
5.935
5.645
5.42
5.355
5.325
5.3
5.245
5.175
5.075
4.905
4.66
4.395
4.165
4.095
3.63
3.415
3.245
3.085
2.94
2.78
2.61
2.485
2.365
2.29
2.235
2.185
2.14
2.105
2.08
2.095
2.095
2.095
2.135
2.21
2.315
2.475
2.65
2.855
2.925
3.395
3.665
3.96
4.235
4.5
4.755
4.99
5.185
5.355
5.5
5.63
5.72
5.785
5.82
5.86
5.925
5.955
5.995
6.02
6.07
6.11
6.14
6.155
6.205
6.22
6.285
6.325
6.38
6.425
6.47
6.505
6.545
6.605
6.65
6.685
6.73
6.79
6.825
6.85
6.885
6.925
6.94
6.945
6.95
6.965
6.96
6.945
6.915
6.895
6.89
6.83
6.765
6.71
6.65
6.595
6.505
6.44
6.37
6.285
6.185
6.11
6.03
5.95
5.87
5.795
5.73
5.68
5.61
5.545
5.51
5.47
5.43
5.38
5.35
5.34
5.285
5.235
5.22
5.215
5.205
5.17
5.155
5.15
5.14
5.11
5.115
5.115
5.115
5.09
5.085
5.085
5.085
5.075
5.075
5.07
5.085
5.07
5.065
5.09
5.1
5.095
5.085
5.085
5.09
5.095
5.09
5.08
5.085
5.09
5.08
5.085
5.095
5.1
5.08
5.075
5.08
5.085
5.075
5.055
5.07
5.07
5.055
5.03
5.05
5.065
5.04
5.03
5.02
5.025
5.02
5.0
5.0
5.0
5.005
4.99
4.985
4.995
4.985
4.975
4.965
4.975
4.97
4.96
4.955
4.96
4.965
4.95
4.945
4.945
4.95
4.945
4.935
4.94
4.955
4.945
4.94
4.925
4.94
4.93
4.93
4.925
4.935
4.945
4.915
4.93
4.94
4.94
4.935
4.925
4.93
4.935
4.935
4.94
4.945
4.95
4.98
4.985
5.03
5.165
5.535
5.915
5.82
5.54
5.44
5.36
5.31
5.26
5.17
5.015
4.765
4.47
4.115
3.705
3.295
2.975
2.72
2.54
2.425
2.3
2.26
2.115
2.07
2.055
2.045
2.025
2.025
2.03
2.045
2.06
2.085
2.15
2.28
2.45
2.615
2.84
3.12
3.43
3.725
4.01
4.32
4.605
4.855
5.075
5.28
5.345
5.625
5.72
5.79
5.85
5.895
5.935
5.98
6.025
6.07
6.085
6.125
6.175
6.22
6.25
6.29
6.345
6.38
6.415
6.455
6.505
6.545
6.58
6.61
6.66
6.68
6.735
6.76
6.795
6.84
6.86
6.865
6.9
6.92
6.925
6.915
6.905
6.905
6.88
6.84
6.79
6.74
6.68
6.6
6.53
6.45
6.365
6.28
6.185
6.1
6.08
5.93
5.85
5.78
5.72
5.645
5.57
5.52
5.475
5.44
5.385
5.345
5.315
5.29
5.245
5.21
5.21
5.185
5.16
5.14
5.14
5.14
5.12
5.11
5.115
5.12
5.105
5.11
5.105
5.11
5.12
5.105
5.11
5.12
5.115
5.1
5.11
5.115
5.12
5.11
5.11
5.12
5.11
5.095
5.095
5.095
5.11
5.095
5.075
5.09
5.095
5.075
5.06
5.06
5.065
5.06
5.04
5.04
5.05
5.04
5.02
5.01
5.01
5.015
5.0
4.99
4.99
4.99
4.98
4.975
4.98
4.97
4.97
4.96
4.955
4.96
4.95
4.945
4.945
4.94
4.945
4.925
4.93
4.945
4.945
4.935
4.93
4.945
4.945
4.93
4.93
4.94
4.935
4.925
4.915
4.92
4.93
4.925
4.91
4.92
4.915
4.915
4.9
4.925
4.925
4.925
4.915
4.925
4.935
4.94
4.93
4.935
4.97
5.085
5.425
5.89
5.815
5.455
5.315
5.27
5.215
5.135
4.98
4.71
4.375
4.265
3.6
3.18
2.885
2.65
2.465
2.32
2.195
2.12
2.07
2.035
2.02
2.02
2.015
2.0
2.02
2.05
2.075
2.13
2.255
2.435
2.67
2.97
3.345
3.735
3.855
4.495
4.795
5.05
5.28
5.49
5.635
5.73
5.805
5.86
5.9
5.96
5.99
6.03
6.06
6.085
6.13
6.165
6.185
6.22
6.275
6.31
6.34
6.365
6.425
6.445
6.515
6.545
6.6
6.655
6.685
6.71
6.775
6.81
6.84
6.86
6.875
6.9
6.925
6.905
6.895
6.885
6.86
6.795
6.745
6.69
6.625
6.535
6.44
6.36
6.335
6.165
6.065
5.975
5.89
5.79
5.705
5.63
5.58
5.515
5.45
5.4
5.37
5.325
5.295
5.265
5.245
5.23
5.2
5.18
5.175
5.18
5.16
5.135
5.135
5.14
5.14
5.12
5.13
5.13
5.14
5.12
5.125
5.135
5.13
5.115
5.11
5.13
5.12
5.11
5.11
5.115
5.12
5.11
5.095
5.105
5.1
5.095
5.07
5.085
5.08
5.08
5.07
5.05
5.06
5.055
5.035
5.03
5.03
5.025
5.01
5.005
5.0
5.01
4.985
4.975
4.985
4.99
4.97
4.96
4.965
4.97
4.955
4.94
4.955
4.965
4.955
4.945
4.945
4.95
4.945
4.935
4.935
4.945
4.94
4.93
4.93
4.935
4.94
4.92
4.925
4.935
4.935
4.925
4.905
4.925
4.92
4.925
4.91
4.92
4.93
4.915
4.9
4.91
4.925
4.91
4.905
4.915
4.925
4.93
4.93
4.955
5.115
5.54
5.845
5.58
5.355
5.315
5.255
5.195
5.115
4.955
4.685
4.34
3.97
3.85
3.22
2.92
2.7
2.54
2.41
2.25
2.14
2.105
2.065
2.03
2.02
2.01
2.02
2.025
2.025
2.08
2.155
2.285
2.46
2.68
2.935
3.24
3.575
3.915
4.015
4.505
4.76
5.005
5.22
5.385
5.525
5.64
5.72
5.79
5.82
5.86
5.91
5.94
5.96
5.995
6.045
6.07
6.085
6.115
6.16
6.185
6.215
6.24
6.275
6.285
6.355
6.375
6.42
6.465
6.495
6.525
6.565
6.62
6.65
6.675
6.71
6.745
6.76
6.775
6.775
6.8
6.795
6.76
6.73
6.72
6.675
6.615
6.54
6.49
6.47
6.33
6.24
6.155
6.065
5.98
5.87
5.8
5.735
5.645
5.57
5.51
5.475
5.415
5.365
5.325
5.3
5.28
5.23
5.205
5.195
5.185
5.17
5.14
5.15
5.155
5.14
5.125
5.125
5.135
5.135
5.115
5.12
5.135
5.14
5.11
5.11
5.125
5.13
5.125
5.12
5.12
5.12
5.115
5.1
5.105
5.115
5.11
5.09
5.095
5.1
5.08
5.07
5.08
5.075
5.07
5.05
5.05
5.05
5.045
5.03
5.02
5.03
5.02
5.005
5.0
5.005
5.0
4.98
4.975
4.98
4.985
4.97
4.95
4.965
4.97
4.96
4.945
4.945
4.96
4.96
4.94
4.95
4.95
4.95
4.93
4.935
4.94
4.945
4.93
4.93
4.94
4.95
4.93
4.91
4.925
4.935
4.925
4.92
4.93
4.935
4.93
4.915
4.93
4.94
4.935
4.92
4.925
4.94
4.945
4.95
5.015
5.29
5.735
5.72
5.425
5.335
5.3
5.255
5.175
5.08
4.89
4.58
4.23
3.865
3.75
3.14
2.875
2.67
2.53
2.385
2.23
2.15
2.105
2.08
2.05
2.04
2.04
2.04
2.03
2.05
2.09
2.165
2.28
2.475
2.73
3.04
3.39
3.73
4.055
4.15
4.66
4.91
5.135
5.34
5.515
5.64
5.72
5.78
5.82
5.85
5.89
5.955
5.995
6.04
6.06
6.115
6.135
6.155
6.18
6.225
6.265
6.29
6.31
6.355
6.375
6.42
6.445
6.505
6.545
6.585
6.605
6.65
6.69
6.73
6.76
6.79
6.83
6.85
6.86
6.87
6.885
6.89
6.87
6.845
6.815
6.785
6.72
6.64
6.59
6.565
6.425
6.33
6.26
6.175
6.08
5.97
5.885
5.82
5.74
5.645
5.585
5.545
5.48
5.42
5.385
5.35
5.31
5.275
5.25
5.24
5.23
5.2
5.175
5.185
5.18
5.165
5.155
5.15
5.165
5.15
5.13
5.135
5.145
5.145
5.135
5.145
5.15
5.15
5.135
5.14
5.14
5.15
5.135
5.13
5.13
5.135
5.12
5.105
5.115
5.12
5.11
5.095
5.095
5.095
5.09
5.075
5.07
5.065
5.06
5.05
5.035
5.055
5.04
5.01
5.015
5.025
5.015
5.0
4.995
5.0
5.01
4.985
4.965
4.985
4.995
4.985
4.975
4.965
4.975
4.965
4.96
4.95
4.96
4.965
4.95
4.945
4.955
4.955
4.945
4.94
4.96
4.95
4.94
4.935
4.945
4.95
4.945
4.93
4.945
4.95
4.945
4.93
4.925
4.935
4.935
4.93
4.93
4.945
4.945
4.93
4.94
4.96
4.97
4.995
5.15
5.595
5.82
5.575
5.365
5.3
5.235
5.13
4.975
4.78
4.72
4.24
3.93
3.69
3.475
3.245
2.97
2.685
2.52
2.38
2.27
2.165
2.125
2.095
2.065
2.055
2.055
2.045
2.05
2.055
2.105
2.17
2.27
2.425
2.65
2.725
3.23
3.58
3.945
4.26
4.55
4.79
5.045
5.28
5.49
5.615
5.715
5.79
5.845
5.885
5.93
5.98
6.005
6.025
6.06
6.1
6.13
6.155
6.185
6.225
6.245
6.29
6.32
6.365
6.415
6.455
6.48
6.535
6.59
6.63
6.655
6.695
6.75
6.77
6.79
6.825
6.855
6.86
6.865
6.855
6.875
6.865
6.84
6.8
6.785
