1
4.96
4.955
4.94
4.945
4.97
4.97
4.955
4.93
4.945
4.955
4.94
4.94
4.94
4.94
4.92
4.915
4.945
4.95
4.94
4.915
4.9
4.91
4.915
4.915
4.9
4.9
4.915
4.915
4.925
4.925
4.905
4.9
4.905
4.91
4.905
4.895
4.92
4.92
4.905
4.88
4.885
4.915
4.925
4.915
4.895
4.915
4.915
4.92
4.915
4.91
4.91
4.925
4.92
4.91
4.905
4.92
4.9
4.895
4.905
4.92
4.915
4.91
4.915
4.935
4.935
4.915
4.92
4.93
4.935
4.935
4.935
4.945
4.95
4.95
4.985
5.005
5.13
5.38
5.885
5.965
5.575
5.37
5.37
5.41
5.42
5.425
5.43
5.445
5.425
5.395
5.39
5.385
5.375
5.35
5.295
5.215
5.115
5.03
4.95
4.805
4.765
4.645
4.68
4.715
4.73
4.7
4.68
4.65
4.685
4.725
4.74
4.75
4.76
4.775
4.795
4.785
4.78
4.78
4.765
4.77
4.79
4.795
4.805
4.8
4.81
4.815
4.82
4.815
4.805
4.81
4.81
4.8
4.79
4.795
4.8
4.79
4.765
4.77
4.78
4.77
4.76
4.775
4.78
4.78
4.77
4.765
4.78
4.785
4.78
4.78
4.795
4.815
4.815
4.81
4.835
4.865
4.87
4.875
4.9
4.915
4.935
4.925
4.95
4.975
4.99
4.995
5.005
5.02
5.03
5.025
5.035
5.045
5.05
5.035
5.025
5.03
5.04
5.03
5.01
5.015
5.02
5.0
4.985
4.995
4.985
4.995
4.98
4.985
4.995
4.985
4.985
4.975
4.97
4.965
4.965
4.955
4.97
4.965
4.945
4.93
4.935
4.925
4.915
4.905
4.91
4.925
4.915
4.91
4.905
4.91
4.9
4.9
4.895
4.89
4.88
4.89
4.89
4.89
4.89
4.87
4.86
4.88
4.88
4.855
4.865
4.86
4.86
4.85
4.84
4.845
4.84
4.845
4.84
4.84
4.845
4.84
4.83
4.835
4.845
4.845
4.83
4.825
4.835
4.835
4.835
4.84
4.84
4.835
4.825
4.84
4.84
4.845
4.835
4.825
4.835
4.835
4.835
4.82
4.825
4.835
4.83
4.84
4.845
4.845
4.845
4.83
4.83
4.84
4.83
4.83
4.83
4.845
4.855
4.83
4.83
4.83
4.85
4.845
4.83
4.855
4.87
4.86
4.85
4.865
4.865
4.87
4.875
4.895
4.955
5.055
5.31
5.815
5.965
5.6
5.32
5.295
5.31
5.32
5.325
5.33
5.345
5.365
5.365
5.34
5.335
5.345
5.35
5.33
5.33
5.33
5.285
5.19
5.125
5.07
4.995
4.87
4.775
4.77
4.805
4.84
4.84
4.82
4.78
4.75
4.735
4.735
4.755
4.765
4.755
4.76
4.77
4.765
4.755
4.755
4.74
4.715
4.705
4.735
4.74
4.74
4.73
4.75
4.76
4.75
4.75
4.74
4.755
4.76
4.76
4.75
4.755
4.755
4.73
4.73
4.75
4.755
4.745
4.735
4.74
4.745
4.74
4.74
4.735
4.75
4.755
4.745
4.75
4.765
4.765
4.77
4.77
4.8
4.795
4.795
4.82
4.83
4.85
4.85
4.87
4.875
4.9
4.905
4.92
4.935
4.945
4.95
4.96
4.965
4.985
5.005
5.0
5.0
5.015
5.005
5.015
5.01
5.025
5.02
5.005
5.0
4.995
5.005
4.99
4.965
4.98
4.985
4.96
4.95
4.96
4.965
4.955
4.945
4.95
4.945
4.935
4.925
4.935
4.935
4.935
4.925
4.925
4.94
4.94
4.93
4.92
4.925
4.915
4.92
4.915
4.925
4.93
4.925
4.91
4.92
4.92
4.91
4.905
4.905
4.905
4.895
4.88
4.87
4.87
4.865
4.86
4.855
4.865
4.875
4.87
4.885
4.89
4.915
4.895
4.885
4.905
4.91
4.91
4.895
4.895
4.9
4.905
4.895
4.9
4.895
4.87
4.84
4.83
4.84
4.83
4.83
4.825
4.83
4.83
4.82
4.83
4.835
4.84
4.84
4.82
4.835
4.835
4.825
4.81
4.815
4.825
4.82
4.82
4.835
4.855
4.845
4.84
4.84
4.84
4.83
4.83
4.83
4.835
4.84
4.855
4.86
4.865
4.86
4.85
4.845
4.875
4.9
4.905
4.91
4.98
5.115
5.485
5.94
5.845
5.46
5.28
5.295
5.32
5.345
5.365
5.35
5.37
5.385
5.365
5.35
5.36
5.37
5.375
5.36
5.345
5.285
5.19
5.11
5.035
4.93
4.815
4.75
4.745
4.78
4.795
4.785
4.77
4.735
4.72
4.715
4.72
4.725
4.74
4.74
4.725
4.74
4.74
4.74
4.725
4.73
4.745
4.765
4.755
4.725
4.73
4.74
4.74
4.74
4.755
4.77
4.775
4.765
4.77
4.78
4.79
4.76
4.75
4.75
4.76
4.76
4.755
4.75
4.75
4.74
4.755
4.78
4.785
4.78
4.78
4.81
4.825
4.835
4.84
4.85
4.865
4.86
4.84
4.88
4.91
4.93
4.92
4.91
4.93
4.96
4.98
4.98
4.985
4.995
4.98
4.99
5.0
5.025
5.015
4.99
4.995
4.995
4.98
4.97
4.975
4.97
4.955
4.95
4.97
4.98
4.965
4.945
4.94
4.955
4.94
4.925
4.915
4.925
4.935
4.92
4.92
4.94
4.945
4.935
4.91
4.93
4.925
4.905
4.89
4.91
4.925
4.9
4.89
4.905
4.92
4.89
4.875
4.905
4.935
4.935
4.9
4.885
4.89
4.91
4.915
4.91
4.925
4.925
4.905
4.88
4.875
4.87
4.875
4.855
4.855
4.87
4.89
4.89
4.88
4.88
4.88
4.84
4.82
4.83
4.865
4.87
4.865
4.87
4.87
4.86
4.85
4.865
4.87
4.88
4.885
4.895
4.885
4.88
4.88
4.9
4.895
4.87
4.855
4.865
4.89
4.895
4.875
4.865
4.89
4.91
4.91
4.89
4.9
4.91
4.91
4.91
4.92
4.92
4.915
4.9
4.91
4.92
4.915
4.89
4.89
4.885
4.905
4.905
4.905
4.94
4.985
5.105
5.485
5.895
5.71
5.34
5.275
5.29
5.365
5.38
5.415
5.455
5.475
5.46
5.45
5.49
5.52
5.52
5.515
5.495
5.445
5.345
5.265
5.185
5.055
4.895
4.8
4.82
4.855
4.83
4.77
4.73
4.72
4.685
4.695
4.715
4.735
4.74
4.73
4.72
4.71
4.71
4.675
4.655
4.68
4.7
4.695
4.685
4.7
4.715
4.72
4.7
4.69
4.72
4.715
4.705
4.705
4.71
4.71
4.695
4.705
4.705
4.705
4.69
4.685
4.705
4.705
4.685
4.69
4.695
4.71
4.705
4.705
4.72
4.735
4.735
4.74
4.75
4.775
4.79
4.8
4.81
4.82
4.85
4.845
4.86
4.88
4.89
4.89
4.89
4.9
4.905
4.905
4.91
4.93
4.92
4.91
4.905
4.905
4.905
4.89
4.885
4.885
4.885
4.88
4.865
4.865
4.865
4.86
4.85
4.85
4.865
4.855
4.85
4.845
4.85
4.85
4.845
4.835
4.835
4.845
4.84
4.83
4.84
4.85
4.85
4.835
4.83
4.845
4.845
4.84
4.84
4.845
4.855
4.84
4.83
4.855
4.86
4.84
4.835
4.84
4.84
4.84
4.82
4.83
4.835
4.825
4.805
4.815
4.83
4.82
4.805
4.805
4.82
4.815
4.79
4.8
4.805
4.805
4.8
4.78
4.795
4.8
4.79
4.785
4.8
4.795
4.79
4.78
4.785
4.79
4.795
4.775
4.785
4.795
4.78
4.77
4.77
4.785
4.785
4.77
4.77
4.775
4.775
4.775
4.77
4.78
4.79
4.78
4.775
4.78
4.785
4.78
4.775
4.78
4.79
4.785
4.795
4.795
4.81
4.805
4.815
4.845
4.9
5.03
5.385
5.79
5.865
5.365
5.24
5.25
5.275
5.28
5.29
5.295
5.315
5.32
5.315
5.31
5.32
5.31
5.29
5.255
5.215
5.115
5.015
4.925
4.8
4.705
4.66
4.68
4.73
4.75
4.76
4.73
4.7
4.695
4.695
4.71
4.7
4.7
4.695
4.68
4.66
4.64
4.63
4.6
4.61
4.62
4.625
4.615
4.61
4.605
4.625
4.625
4.61
4.62
4.62
4.625
4.615
4.615
4.62
4.625
4.62
4.61
4.625
4.63
4.615
4.61
4.625
4.64
4.63
4.625
4.64
4.645
4.655
4.655
4.66
4.675
4.685
4.695
4.71
4.715
4.75
4.75
4.77
4.785
4.795
4.815
4.815
4.83
4.85
4.85
4.86
4.875
4.885
4.885
4.885
4.89
4.89
4.885
4.875
4.865
4.88
4.88
4.875
4.85
4.855
4.86
4.855
4.835
4.845
4.835
4.815
4.805
4.835
4.84
4.82
4.81
4.815
4.82
4.82
4.81
4.825
4.84
4.82
4.805
4.805
4.825
4.825
4.805
4.805
4.81
4.825
4.81
4.795
4.81
4.8
4.79
4.78
4.79
4.795
4.785
4.775
4.78
4.785
4.785
4.79
4.79
4.795
4.785
4.765
4.765
4.775
4.78
4.775
4.78
4.79
4.785
4.755
4.74
4.755
4.76
4.75
4.735
4.75
4.755
4.74
4.73
4.75
4.765
4.76
4.765
4.775
4.78
4.77
4.755
4.765
4.78
4.76
4.755
4.745
4.75
4.78
4.78
4.765
4.76
4.77
4.755
4.74
4.765
4.77
4.76
4.75
4.775
4.775
4.78
4.795
4.79
4.8
4.795
4.795
4.825
4.9
5.065
5.485
5.8
5.82
5.245
5.195
5.215
5.24
5.25
5.27
5.27
5.265
5.245
5.225
5.215
5.22
5.23
5.21
5.15
5.045
4.955
4.875
4.74
4.61
4.58
4.63
4.66
4.65
4.645
4.605
4.58
4.59
4.62
4.635
4.665
4.68
4.695
4.7
4.69
4.655
4.65
4.64
4.665
4.675
4.685
4.675
4.63
4.615
4.63
4.655
4.67
4.66
4.665
4.67
4.675
4.635
4.625
4.64
4.625
4.62
4.6
4.61
4.605
4.59
4.595
4.64
4.66
4.655
4.65
4.64
4.665
4.675
4.67
4.665
4.685
4.7
4.725
4.745
4.755
4.77
4.78
4.815
4.855
4.87
4.865
4.895
4.925
4.93
4.92
4.92
4.93
4.94
4.935
4.93
4.93
4.93
4.91
4.895
4.91
4.905
4.88
4.855
4.87
4.875
4.86
4.83
4.82
4.83
4.835
4.825
4.82
4.835
4.835
4.815
4.795
4.785
4.795
4.8
4.8
4.81
4.81
4.805
4.78
4.76
4.735
4.7
4.67
4.65
4.645
4.605
4.56
4.53
4.545
4.565
4.59
4.645
4.695
4.715
4.76
4.86
5.02
5.155
5.23
5.28
5.32
5.26
5.1
4.8
4.475
4.255
4.16
4.13
4.085
4.08
4.205
4.29
4.385
4.48
4.53
4.555
4.595
4.64
4.65
4.645
4.65
4.66
4.675
4.675
4.67
4.675
4.68
4.68
4.675
4.685
4.7
4.71
4.7
4.715
4.72
4.735
4.735
4.735
4.76
4.755
4.765
4.755
4.775
4.78
4.78
4.775
4.79
4.79
4.79
4.775
4.78
4.79
4.78
4.755
4.76
4.77
4.765
4.76
4.755
4.77
4.77
4.765
4.765
4.785
4.795
4.79
4.79
4.8
4.81
4.805
4.795
4.8
4.79
4.79
4.775
4.775
4.78
4.78
4.765
4.77
4.77
4.77
4.765
4.765
4.77
4.76
4.755
4.755
4.76
4.755
4.74
4.735
4.74
4.745
4.735
4.74
4.74
4.745
4.745
4.73
4.725
4.74
4.715
4.715
4.74
4.755
4.755
4.745
4.745
4.75
4.765
4.765
4.77
4.78
4.78
4.765
4.77
4.775
4.78
4.765
4.745
4.745
4.74
4.725
4.72
4.74
4.735
4.735
4.72
4.725
4.73
4.725
4.71
4.72
4.715
4.735
4.73
4.72
4.73
4.735
4.715
4.72
4.73
4.73
4.72
4.725
4.725
4.735
4.72
4.715
4.73
4.74
4.72
4.7
4.705
4.725
4.72
4.71
4.715
4.725
4.725
4.715
4.715
4.73
4.715
4.715
4.705
4.72
4.725
4.715
4.705
4.715
4.725
4.715
4.7
4.715
4.725
4.72
4.715
4.725
4.73
4.735
4.725
4.725
4.725
4.735
4.73
4.73
4.745
4.75
4.745
4.735
4.75
4.76
4.755
4.75
4.755
4.77
4.76
4.755
4.77
4.785
4.795
4.81
4.865
4.965
5.245
5.75
5.85
5.775
5.21
5.205
5.23
5.255
5.26
5.275
5.285
5.285
5.275
5.265
5.275
5.295
5.29
5.285
5.25
5.19
5.135
5.07
4.965
4.86
4.83
4.86
4.89
4.88
4.875
4.81
4.755
4.73
4.74
4.725
4.69
4.67
4.685
4.695
4.68
4.65
4.625
4.62
4.615
4.62
4.63
4.635
4.64
4.635
4.64
4.655
4.655
4.64
4.645
4.65
4.655
4.645
4.64
4.66
4.665
4.655
4.64
4.66
4.66
4.665
4.655
4.675
4.69
4.685
4.68
4.705
4.71
4.7
4.705
4.72
4.73
4.745
4.75
4.76
4.765
4.805
4.805
4.815
4.84
4.85
4.85
4.865
4.89
4.9
4.895
4.9
4.91
4.935
4.94
4.93
4.945
4.945
4.95
4.945
4.96
4.965
4.955
4.94
4.935
4.93
4.935
4.935
4.91
4.92
4.93
4.915
4.9
4.91
4.915
4.895
4.885
4.885
4.885
4.885
4.87
4.87
4.88
4.87
4.855
4.86
4.875
4.865
4.86
4.85
4.85
4.85
4.835
4.83
4.84
4.835
4.825
4.82
4.835
4.835
4.83
4.84
4.855
4.85
4.855
4.84
4.855
4.86
4.84
4.835
4.83
4.84
4.83
4.81
4.815
4.815
4.795
4.77
4.77
4.795
4.785
4.78
4.77
4.78
4.785
4.76
4.755
4.765
4.755
4.76
4.76
4.775
4.785
4.78
4.75
4.755
4.77
4.76
4.76
4.76
4.765
4.77
4.755
4.75
4.765
4.765
4.76
4.755
4.775
4.78
4.77
4.76
4.77
4.775
4.765
4.765
4.755
4.78
4.785
4.785
4.8
4.81
4.815
4.81
4.825
4.835
4.93
5.075
5.535
5.865
5.585
5.23
5.15
5.22
5.24
5.255
5.28
5.31
5.305
5.265
5.255
5.27
5.275
5.255
5.225
5.195
5.135
5.04
4.96
4.845
4.805
4.67
4.68
4.73
4.75
4.735
4.7
4.655
4.65
4.655
4.655
4.665
4.69
4.7
4.7
4.7
4.695
4.695
4.655
4.645
4.68
4.71
4.705
4.685
4.675
4.675
4.715
4.715
4.72
4.73
4.72
4.72
4.705
4.705
4.71
4.705
4.71
4.72
4.73
4.735
4.725
4.73
4.735
4.74
4.75
4.76
4.785
4.775
4.775
4.795
4.805
4.815
4.8
4.82
4.855
4.885
4.895
4.91
4.93
4.94
4.945
4.96
4.98
4.995
5.005
4.995
5.03
5.03
5.015
5.0
4.99
4.995
4.995
5.005
5.015
5.02
5.0
4.97
4.97
4.98
4.985
4.965
4.95
4.97
4.965
4.95
4.94
4.935
4.945
4.94
4.95
4.955
4.945
4.945
4.94
4.955
4.955
4.92
4.9
4.92
4.94
4.965
4.935
4.92
4.935
4.945
4.935
4.91
4.91
4.915
4.915
4.93
4.945
4.945
4.93
4.91
4.91
4.92
4.91
4.9
4.895
4.91
4.915
4.9
4.895
4.905
4.96
4.945
4.92
4.915
4.925
4.91
4.885
4.885
4.875
4.865
4.865
4.89
4.91
4.91
4.92
4.925
4.925
4.92
4.905
4.905
4.915
4.91
4.885
4.87
4.87
4.86
4.87
4.88
4.89
4.905
4.885
4.9
4.935
4.945
4.935
4.925
4.945
4.945
4.935
4.95
4.975
4.99
4.96
4.93
4.945
4.96
4.935
4.905
4.905
4.91
4.92
4.905
4.9
4.915
4.93
4.93
4.925
4.935
4.945
4.955
4.975
5.04
5.155
5.485
5.885
5.82
5.475
5.33
5.345
5.375
5.405
5.44
5.465
5.49
5.51
5.53
5.53
5.555
5.595
5.625
5.615
5.59
5.58
5.53
5.425
5.33
5.26
5.155
4.995
4.89
4.88
4.9
4.905
4.87
4.835
4.81
4.75
4.725
4.73
4.745
4.78
4.785
4.78
4.785
4.785
4.78
4.75
4.755
4.76
4.75
4.76
4.77
4.785
4.79
4.79
4.81
4.805
4.8
4.795
4.795
4.805
4.805
4.795
4.79
4.785
4.8
4.79
4.775
4.795
4.795
4.775
4.775
4.78
4.78
4.775
4.765
4.775
4.795
4.795
4.795
4.81
4.82
4.83
4.835
4.835
4.86
4.86
4.865
4.88
4.89
4.92
4.91
4.93
4.945
4.97
4.955
4.955
4.985
4.995
4.995
4.985
5.005
5.005
4.995
4.99
4.995
5.005
4.99
4.975
4.975
4.995
4.975
4.955
4.95
4.965
4.95
4.945
4.93
4.93
4.945
4.93
4.93
4.935
4.945
4.935
4.925
4.93
4.94
4.93
4.92
4.925
4.925
4.925
4.92
4.92
4.935
4.92
4.915
4.92
4.92
4.925
4.915
4.915
4.925
4.92
4.925
4.915
4.92
4.925
4.915
4.91
4.92
4.915
4.915
4.91
4.91
4.925
4.915
4.91
4.9
4.91
4.905
4.875
4.895
4.895
4.895
4.885
4.875
4.895
4.9
4.88
4.875
4.89
4.895
4.87
4.865
4.875
4.885
4.88
4.855
4.865
4.885
4.88
4.86
4.88
4.885
4.87
4.865
4.875
4.88
4.88
4.87
4.865
4.885
4.885
4.88
4.865
4.865
4.88
4.875
4.86
4.86
4.87
4.885
4.87
4.865
4.885
4.875
4.875
4.87
4.885
4.885
4.875
4.875
4.88
4.9
4.89
4.885
4.905
4.935
4.965
5.06
5.365
5.86
5.915
5.545
5.335
5.33
5.365
5.365
5.39
5.405
5.415
5.395
5.37
5.385
5.385
5.365
5.345
5.34
5.24
5.125
5.055
5.01
4.91
4.785
4.725
4.785
4.825
4.865
4.87
4.855
4.82
4.79
4.78
4.8
4.82
4.805
4.79
4.775
4.785
4.75
4.725
4.71
4.715
4.72
4.725
4.72
4.725
4.73
4.73
4.725
4.74
4.75
4.73
4.72
4.73
4.745
4.735
4.735
4.735
4.745
4.745
4.735
4.73
4.745
4.745
4.735
4.735
4.74
4.755
4.755
4.745
4.76
4.78
4.775
4.775
4.8
4.81
4.81
4.82
4.845
4.86
4.85
4.87
4.885
4.915
4.925
4.915
4.93
4.95
4.955
4.97
4.97
4.98
4.995
4.985
4.98
5.0
5.0
4.99
4.975
4.98
4.98
4.96
4.945
4.95
4.955
4.955
4.935
4.93
4.95
4.94
4.92
4.92
4.935
4.93
4.915
4.915
4.92
4.915
4.91
4.91
4.915
4.92
4.905
4.91
4.92
4.925
4.92
4.905
4.905
4.92
4.92
4.905
4.915
4.92
4.91
4.905
4.91
4.915
4.91
4.9
4.89
4.895
4.9
4.885
4.88
4.89
4.9
4.875
4.875
4.88
4.89
4.88
4.865
4.895
4.885
4.89
4.88
4.885
4.885
4.87
4.865
4.865
4.885
4.875
4.865
4.855
4.86
4.87
4.865
4.855
4.875
4.885
4.875
4.865
4.87
4.88
4.87
4.86
4.875
4.875
4.87
4.86
4.86
4.875
4.87
4.865
4.855
4.86
4.865
4.845
4.84
4.845
4.845
4.855
4.85
4.87
4.87
4.865
4.865
4.875
4.88
4.865
4.855
4.88
4.915
4.935
4.975
5.095
5.49
6.01
5.88
5.425
5.28
5.32
5.33
5.33
5.34
5.355
5.34
5.32
5.34
5.365
5.33
5.295
5.255
5.165
5.04
4.96
4.855
4.765
4.735
4.77
4.81
4.81
4.78
4.74
4.73
4.755
4.795
4.805
4.805
4.8
4.8
4.78
4.745
4.725
4.71
4.71
4.71
4.73
4.745
4.75
4.75
4.75
4.765
4.755
4.745
4.745
4.755
4.74
4.695
4.705
4.72
4.735
4.705
4.71
4.715
4.715
4.7
4.69
4.73
4.755
4.76
4.755
4.77
4.77
4.775
4.765
4.8
4.825
4.85
4.85
4.87
4.885
4.895
4.905
4.935
4.965
4.985
4.98
4.99
5.0
5.02
5.015
5.02
5.035
5.025
5.015
5.0
5.01
5.01
5.0
4.985
4.98
4.975
4.95
4.95
4.945
4.95
4.94
4.93
4.93
4.94
4.925
4.915
4.91
4.915
4.9
4.885
4.885
4.89
4.89
4.875
4.89
4.91
4.92
4.915
4.915
4.91
4.905
4.895
4.895
4.9
4.89
4.885
4.875
4.88
4.89
4.895
4.875
4.875
4.875
4.89
4.875
4.86
4.87
4.86
4.86
4.85
4.87
4.875
4.85
4.825
4.84
4.865
4.865
4.85
4.86
4.86
4.85
4.835
4.84
4.84
4.845
4.845
4.835
4.83
4.83
4.82
4.835
4.845
4.84
4.82
4.825
4.86
4.87
4.85
4.82
4.825
4.85
4.85
4.835
4.81
4.81
4.82
4.83
4.835
4.84
4.835
4.83
4.83
4.84
4.855
4.86
4.845
4.845
4.835
4.84
4.83
4.85
4.845
4.86
4.88
4.92
4.97
5.02
5.165
5.595
5.94
5.71
5.345
5.255
5.31
5.335
5.35
5.355
5.365
5.38
5.365
5.355
5.36
5.33
5.3
5.24
5.14
5.01
4.925
4.81
4.695
4.64
4.645
4.655
4.67
4.65
4.625
4.6
4.62
4.665
4.7
4.73
4.745
4.755
4.775
4.77
4.755
4.755
4.76
4.785
4.795
4.805
4.81
4.81
4.8
4.79
4.8
4.795
4.795
4.78
4.785
4.79
4.77
4.77
4.77
4.76
4.745
4.74
4.735
4.745
4.725
4.715
4.725
4.725
4.725
4.715
4.735
4.74
4.735
4.73
4.74
4.765
4.77
4.78
4.795
4.82
4.825
4.83
4.855
4.9
4.905
4.905
4.925
4.94
4.97
4.97
4.97
4.995
5.005
5.005
5.005
5.005
5.015
5.01
4.985
4.99
4.995
4.975
4.96
4.955
4.95
4.93
4.92
4.91
4.93
4.9
4.895
4.885
4.89
4.9
4.885
4.88
4.895
4.895
4.88
4.86
4.88
4.89
4.87
4.865
4.885
4.875
4.88
4.865
4.87
4.875
4.865
4.86
4.86
4.865
4.865
4.85
4.855
4.85
4.865
4.85
4.85
4.855
4.85
4.84
4.835
4.85
4.85
4.835
4.815
4.835
4.84
4.825
4.81
4.82
4.83
4.82
4.81
4.815
4.835
4.82
4.815
4.81
4.815
4.825
4.815
4.82
4.83
4.83
4.83
4.82
4.825
4.82
4.82
4.81
4.815
4.825
4.82
4.81
4.825
4.83
4.83
4.815
4.825
4.845
4.835
4.825
4.82
4.825
4.835
4.825
4.825
4.84
4.835
4.835
4.83
4.85
4.86
4.85
4.855
4.89
4.94
5.015
5.275
5.77
5.81
5.445
5.255
5.26
5.315
5.31
5.32
5.34
5.35
5.345
5.33
5.33
5.345
5.325
5.285
5.24
5.155
5.065
4.99
4.875
4.765
4.715
4.725
4.755
4.755
4.745
4.72
4.69
4.7
4.725
4.74
4.74
4.745
4.755
4.765
4.75
4.735
4.75
4.745
4.765
4.77
4.77
4.77
4.76
4.76
4.77
4.78
4.775
4.745
4.735
4.73
4.715
4.695
4.71
4.71
4.7
4.68
4.675
4.675
4.675
4.665
4.645
4.65
4.66
4.655
4.645
4.655
4.66
4.655
4.65
4.675
4.69
4.7
4.695
4.725
4.755
4.75
4.765
4.78
4.81
4.835
4.85
4.855
4.87
4.91
4.92
4.935
4.96
4.965
4.97
4.965
4.985
4.995
4.985
4.97
4.98
4.985
4.97
4.955
4.945
4.955
4.94
4.925
4.92
4.93
4.92
4.905
4.9
4.905
4.895
4.89
4.875
4.89
4.895
4.885
4.875
4.895
4.895
4.885
4.88
4.89
4.89
4.88
4.875
4.88
4.89
4.875
4.86
4.865
4.895
4.875
4.86
4.87
4.87
4.87
4.86
4.85
4.86
4.865
4.845
4.84
4.86
4.865
4.85
4.84
4.85
4.855
4.845
4.84
4.835
4.855
4.83
4.825
4.825
4.835
4.84
4.825
4.83
4.835
4.835
4.83
4.815
4.83
4.82
4.825
4.82
4.83
4.835
4.82
4.815
4.83
4.84
4.84
4.83
4.84
4.85
4.84
4.825
4.825
4.84
4.84
4.825
4.83
4.835
4.84
4.825
4.825
4.845
4.84
4.84
4.835
4.85
4.855
4.84
4.845
4.855
4.865
4.875
4.88
4.925
4.985
5.075
5.4
5.775
5.69
5.39
5.275
5.285
5.295
5.295
5.29
5.295
5.31
5.29
5.27
5.25
5.26
5.245
5.19
5.135
5.07
5.0
4.915
4.82
4.715
4.66
4.655
4.695
4.73
4.75
4.75
4.725
4.725
4.735
4.775
4.795
4.815
4.82
4.795
4.76
4.755
4.765
4.77
4.755
4.76
4.785
4.795
4.785
4.785
4.795
4.79
4.79
4.775
4.785
4.8
4.79
4.78
4.765
4.77
4.78
4.785
4.77
4.785
4.795
4.775
4.775
4.78
4.785
4.795
4.785
4.815
4.835
4.83
4.83
4.84
4.87
4.88
4.89
4.91
4.925
4.915
4.92
4.94
